Freq /Hz, Zr_calc , Zi_calc ; Name: sim_
1.000000E+7	1.950975E+2	-9.464768E+2
8.341801E+6	2.382864E+2	-1.110427E+3
6.958565E+6	2.923106E+2	-1.301777E+3
5.804697E+6	3.602209E+2	-1.524630E+3
4.842163E+6	4.459776E+2	-1.783464E+3
4.039236E+6	5.547071E+2	-2.083032E+3
3.369450E+6	6.930091E+2	-2.428168E+3
2.810729E+6	8.693022E+2	-2.823450E+3
2.344654E+6	1.094179E+3	-3.272670E+3
1.955864E+6	1.380701E+3	-3.778036E+3
1.631543E+6	1.744510E+3	-4.339043E+3
1.361000E+6	2.203560E+3	-4.950999E+3
1.135320E+6	2.777189E+3	-5.603285E+3
9.470610E+5	3.484211E+3	-6.277613E+3
7.900195E+5	4.339806E+3	-6.946835E+3
6.590185E+5	5.351269E+3	-7.575132E+3
5.497402E+5	6.513315E+3	-8.120518E+3
4.585823E+5	7.804389E+3	-8.540156E+3
3.825403E+5	9.185866E+3	-8.797976E+3
3.191075E+5	1.060559E+4	-8.872607E+3
2.661931E+5	1.200557E+4	-8.762801E+3
2.220530E+5	1.333172E+4	-8.488081E+3
1.852322E+5	1.454230E+4	-8.084326E+3
1.545170E+5	1.561259E+4	-7.596196E+3
1.288950E+5	1.653507E+4	-7.069222E+3
1.075217E+5	1.731637E+4	-6.543838E+3
8.969245E+4	1.797273E+4	-6.052186E+3
7.481966E+4	1.852573E+4	-5.617365E+3
6.241308E+4	1.899907E+4	-5.254208E+3
5.206375E+4	1.941654E+4	-4.970674E+3
4.343054E+4	1.980100E+4	-4.769207E+3
3.622890E+4	2.017407E+4	-4.647700E+3
3.022143E+4	2.055596E+4	-4.599945E+3
2.521011E+4	2.096519E+4	-4.615620E+3
2.102978E+4	2.141791E+4	-4.680031E+3
1.754262E+4	2.192661E+4	-4.773966E+3
1.463371E+4	2.249820E+4	-4.874164E+3
1.220715E+4	2.313200E+4	-4.954889E+3
1.018296E+4	2.381821E+4	-4.990858E+3
8.494422E+3	2.453803E+4	-4.961150E+3
7.085878E+3	2.526587E+4	-4.853059E+3
5.910899E+3	2.597358E+4	-4.664448E+3
4.930755E+3	2.663533E+4	-4.403619E+3
4.113138E+3	2.723171E+4	-4.086727E+3
3.431098E+3	2.775164E+4	-3.733840E+3
2.862153E+3	2.819222E+4	-3.365045E+3
2.387552E+3	2.855692E+4	-2.997655E+3
1.991648E+3	2.885331E+4	-2.644832E+3
1.661393E+3	2.909087E+4	-2.315395E+3
1.385901E+3	2.927943E+4	-2.014365E+3
1.156091E+3	2.942816E+4	-1.743810E+3
9.643884E+2	2.954506E+4	-1.503708E+3
8.044736E+2	2.963683E+4	-1.292691E+3
6.710759E+2	2.970893E+4	-1.108612E+3
5.597982E+2	2.976569E+4	-9.489475E+2
4.669725E+2	2.981052E+4	-8.110678E+2
3.895392E+2	2.984607E+4	-6.924054E+2
3.249459E+2	2.987439E+4	-5.905515E+2
2.710634E+2	2.989706E+4	-5.033053E+2
2.261157E+2	2.991529E+4	-4.286926E+2
1.886212E+2	2.993004E+4	-3.649655E+2
1.573441E+2	2.994202E+4	-3.105910E+2
1.312533E+2	2.995180E+4	-2.642340E+2
1.094889E+2	2.995982E+4	-2.247379E+2
9.133346E+1	2.996642E+4	-1.911050E+2
7.618856E+1	2.997187E+4	-1.624771E+2
6.355498E+1	2.997640E+4	-1.381177E+2
5.301630E+1	2.998016E+4	-1.173964E+2
4.422515E+1	2.998330E+4	-9.977389E+1
3.689174E+1	2.998592E+4	-8.478967E+1
3.077436E+1	2.998812E+4	-7.205081E+1
2.567136E+1	2.998996E+4	-6.122228E+1
2.141454E+1	2.999152E+4	-5.201862E+1
1.786358E+1	2.999282E+4	-4.419676E+1
1.490144E+1	2.999393E+4	-3.754973E+1
1.243049E+1	2.999486E+4	-3.190147E+1
1.036927E+1	2.999564E+4	-2.710215E+1
8.649836E+0	2.999631E+4	-2.302437E+1
7.215521E+0	2.999687E+4	-1.955979E+1
6.019045E+0	2.999734E+4	-1.661629E+1
5.020967E+0	2.999775E+4	-1.411558E+1
4.188391E+0	2.999809E+4	-1.199108E+1
3.493873E+0	2.999838E+4	-1.018625E+1
2.914519E+0	2.999862E+4	-8.653003E+0
2.431234E+0	2.999883E+4	-7.350495E+0
2.028087E+0	2.999901E+4	-6.244015E+0
1.691790E+0	2.999916E+4	-5.304070E+0
1.411258E+0	2.999928E+4	-4.505601E+0
1.177243E+0	2.999939E+4	-3.827321E+0
9.820328E-1	2.999948E+4	-3.251140E+0
8.191922E-1	2.999956E+4	-2.761694E+0
6.833539E-1	2.999963E+4	-2.345927E+0
5.700402E-1	2.999968E+4	-1.992749E+0
4.755162E-1	2.999973E+4	-1.692739E+0
3.966662E-1	2.999977E+4	-1.437895E+0
3.308911E-1	2.999981E+4	-1.221416E+0
2.760228E-1	2.999984E+4	-1.037527E+0
2.302527E-1	2.999986E+4	-8.813235E-1
1.920722E-1	2.999988E+4	-7.486362E-1
1.602228E-1	2.999990E+4	-6.359252E-1
1.336547E-1	2.999991E+4	-5.401832E-1
1.114921E-1	2.999993E+4	-4.588555E-1
9.300449E-2	2.999994E+4	-3.897720E-1
7.758250E-2	2.999995E+4	-3.310893E-1
6.471778E-2	2.999996E+4	-2.812416E-1
5.398629E-2	2.999996E+4	-2.388988E-1
4.503429E-2	2.999997E+4	-2.029310E-1
3.756671E-2	2.999997E+4	-1.723783E-1
3.133740E-2	2.999998E+4	-1.464255E-1
2.614104E-2	2.999998E+4	-1.243801E-1
2.180633E-2	2.999998E+4	-1.056537E-1
1.819041E-2	2.999999E+4	-8.974680E-2
1.517408E-2	2.999999E+4	-7.623475E-2
1.265792E-2	2.999999E+4	-6.475704E-2
1.055898E-2	2.999999E+4	-5.500738E-2
8.808093E-3	2.999999E+4	-4.672560E-2
7.347536E-3	2.999999E+4	-3.969071E-2
6.129169E-3	2.999999E+4	-3.371497E-2
5.112831E-3	3.000000E+4	-2.863892E-2
4.265022E-3	3.000000E+4	-2.432712E-2
3.557796E-3	3.000000E+4	-2.066448E-2
2.967843E-3	3.000000E+4	-1.755329E-2
2.475716E-3	3.000000E+4	-1.491050E-2
2.065193E-3	3.000000E+4	-1.266561E-2
1.722743E-3	3.000000E+4	-1.075871E-2
1.437078E-3	3.000000E+4	-9.138901E-3
1.198782E-3	3.000000E+4	-7.762969E-3
1.000000E-3	3.000000E+4	-6.594194E-3
